wavelengths
420.367
420.743
421.118
421.493
421.868
422.243
422.618
422.993
423.367
423.742
424.117
424.492
424.866
425.241
425.616
425.99
426.365
426.739
427.114
427.488
427.862
428.236
428.611
428.985
429.359
429.733
430.107
430.481
430.855
431.229
431.603
431.977
432.351
432.725
433.098
433.472
433.846
434.219
434.593
434.966
435.34
435.713
436.086
436.46
436.833
437.206
437.579
437.953
438.326
438.699
439.072
439.445
439.818
440.191
440.564
440.936
441.309
441.682
442.055
442.427
442.8
443.172
443.545
443.917
444.29
444.662
445.034
445.407
445.779
446.151
446.523
446.895
447.267
447.639
448.011
448.383
448.755
449.127
449.499
449.871
450.242
450.614
450.986
451.357
451.729
452.1
452.472
452.843
453.215
453.586
453.957
454.328
454.7
455.071
455.442
455.813
456.184
456.555
456.926
457.297
457.668
458.038
458.409
458.78
459.151
459.521
459.892
460.262
460.633
461.003
461.374
461.744
462.114
462.485
462.855
463.225
463.595
463.965
464.335
464.705
465.075
465.445
465.815
466.185
466.555
466.925
467.294
467.664
468.034
468.403
468.773
469.142
469.512
469.881
470.25
470.62
470.989
471.358
471.727
472.097
472.466
472.835
473.204
473.573
473.942
474.31
474.679
475.048
475.417
475.785
476.154
476.523
476.891
477.26
477.628
477.997
478.365
478.733
479.102
479.47
479.838
480.206
480.574
480.943
481.311
481.679
482.046
482.414
482.782
483.15
483.518
483.886
484.253
484.621
484.988
485.356
485.723
486.091
486.458
486.826
487.193
487.56
487.928
488.295
488.662
489.029
489.396
489.763
490.13
490.497
490.864
491.231
491.597
491.964
492.331
492.698
493.064
493.431
493.797
494.164
494.53
494.897
495.263
495.629
495.995
496.362
496.728
497.094
497.46
497.826
498.192
498.558
498.924
499.29
499.656
500.021
500.387
500.753
501.118
501.484
501.849
502.215
502.58
502.946
503.311
503.677
504.042
504.407
504.772
505.137
505.502
505.868
506.233
506.597
506.962
507.327
507.692
508.057
508.422
508.786
509.151
509.516
509.88
510.245
510.609
510.974
511.338
511.702
512.067
512.431
512.795
513.159
513.523
513.887
514.251
514.615
514.979
515.343
515.707
516.071
516.435
516.798
517.162
517.526
517.889
518.253
518.616
518.98
519.343
519.706
520.07
520.433
520.796
521.159
521.522
521.885
522.248
522.611
522.974
523.337
523.7
524.063
524.426
524.788
525.151
525.514
525.876
526.239
526.601
526.964
527.326
527.689
528.051
528.413
528.775
529.138
529.5
529.862
530.224
530.586
530.948
531.31
531.671
532.033
532.395
532.757
533.118
533.48
533.842
534.203
534.565
534.926
535.288
535.649
536.01
536.372
536.733
537.094
537.455
537.816
538.177
538.538
538.899
539.26
539.621
539.982
540.343
540.703
541.064
541.425
541.785
542.146
542.506
542.867
543.227
543.587
543.948
544.308
544.668
545.028
545.389
545.749
546.109
546.469
546.829
547.189
547.548
547.908
548.268
548.628
548.987
549.347
549.707
550.066
550.426
550.785
551.145
551.504
551.863
552.222
552.582
552.941
553.3
553.659
554.018
554.377
554.736
555.095
555.454
555.813
556.171
556.53
556.889
557.247
557.606
557.965
558.323
558.682
559.04
559.398
559.757
560.115
560.473
560.831
561.189
561.547
561.905
562.263
562.621
562.979
563.337
563.695
564.053
564.41
564.768
565.126
565.483
565.841
566.198
566.556
566.913
567.271
567.628
567.985
568.342
568.699
569.057
569.414
569.771
570.128
570.485
570.841
571.198
571.555
571.912
572.269
572.625
572.982
573.338
573.695
574.051
574.408
574.764
575.121
575.477
575.833
576.189
576.545
576.902
577.258
577.614
577.97
578.325
578.681
579.037
579.393
579.749
580.104
580.46
580.816
581.171
581.527
581.882
582.238
582.593
582.948
583.303
583.659
584.014
584.369
584.724
585.079
585.434
585.789
586.144
586.499
586.854
587.208
587.563
587.918
588.272
588.627
588.982
589.336
589.69
590.045
590.399
590.754
591.108
591.462
591.816
592.17
592.524
592.878
593.232
593.586
593.94
594.294
594.648
595.002
595.355
595.709
596.062
596.416
596.77
597.123
597.476
597.83
598.183
598.536
598.89
599.243
599.596
599.949
600.302
600.655
601.008
601.361
601.714
602.067
602.419
602.772
603.125
603.477
603.83
604.182
604.535
604.887
605.24
605.592
605.944
606.297
606.649
607.001
607.353
607.705
608.057
608.409
608.761
609.113
609.465
609.817
610.168
610.52
610.872
611.223
611.575
611.926
612.278
612.629
612.981
613.332
613.683
614.034
614.386
614.737
615.088
615.439
615.79
616.141
616.492
616.842
617.193
617.544
617.895
618.245
618.596
618.947
619.297
619.648
619.998
620.348
620.699
621.049
621.399
621.749
622.1
622.45
622.8
623.15
623.5
623.85
624.199
624.549
624.899
625.249
625.598
625.948
626.298
626.647
626.997
627.346
627.695
628.045
628.394
628.743
629.092
629.442
629.791
630.14
630.489
630.838
631.187
631.536
631.884
632.233
632.582
632.931
633.279
633.628
633.976
634.325
634.673
635.022
635.37
635.718
636.067
636.415
636.763
637.111
637.459
637.807
638.155
638.503
638.851
639.199
639.546
639.894
640.242
640.59
640.937
641.285
641.632
641.98
642.327
642.674
643.022
643.369
643.716
644.063
644.41
644.758
645.105
645.452
645.798
646.145
646.492
646.839
647.186
647.532
647.879
648.226
648.572
648.919
649.265
649.611
649.958
650.304
650.65
650.997
651.343
651.689
652.035
652.381
652.727
653.073
653.419
653.765
654.11
654.456
654.802
655.147
655.493
655.839
656.184
656.53
656.875
657.22
657.566
657.911
658.256
658.601
658.946
659.291
659.636
659.981
660.326
660.671
661.016
661.361
661.706
662.05
662.395
662.739
663.084
663.428
663.773
664.117
664.462
664.806
665.15
665.494
665.839
666.183
666.527
666.871
667.215
667.559
667.903
668.246
668.59
668.934
669.278
669.621
669.965
670.308
670.652
670.995
671.339
671.682
672.025
672.368
672.712
673.055
673.398
673.741
674.084
674.427
674.77
675.113
675.455
675.798
676.141
676.484
676.826
677.169
677.511
677.854
678.196
678.539
678.881
679.223
679.565
679.908
680.25
680.592
680.934
681.276
681.618
681.96
682.302
682.643
682.985
683.327
683.669
684.01
684.352
684.693
685.035
685.376
685.717
686.059
686.4
686.741
687.082
687.424
687.765
688.106
688.447
688.788
689.128
689.469
689.81
690.151
690.491
690.832
691.173
691.513
691.854
692.194
692.535
692.875
693.215
693.555
693.896
694.236
694.576
694.916
695.256
695.596
695.936
696.276
696.615
696.955
697.295
697.635
697.974
698.314
698.653
698.993
699.332
699.672
700.011
700.35
700.689
701.029
701.368
701.707
702.046
702.385
702.724
703.063
703.402
703.74
704.079
704.418
704.756
705.095
705.434
705.772
706.111
706.449
706.787
707.126
707.464
707.802
708.14
708.478
708.816
709.154
709.492
709.83
710.168
710.506
710.844
711.181
711.519
711.857
712.194
712.532
712.869
713.207
713.544
713.881
714.219
714.556
714.893
715.23
715.567
715.904
716.241
716.578
716.915
717.252
717.589
717.925
718.262
718.599
718.935
719.272
719.608
719.945
720.281
720.618
720.954
721.29
721.626
721.962
722.299
722.635
722.971
723.307
723.642
723.978
724.314
724.65
724.986
725.321
725.657
725.992
726.328
726.663
726.999
727.334
727.669
728.005
728.34
728.675
729.01
729.345
729.68
730.015
730.35
730.685
731.02
731.355
731.689
732.024
732.359
732.693
733.028
733.362
733.697
734.031
734.365
734.7
735.034
735.368
735.702
736.036
736.37
736.704
737.038
737.372
737.706
738.04
738.373
738.707
739.041
739.374
739.708
740.041
740.375
740.708
741.041
741.375
741.708
742.041
742.374
742.707
743.04
743.373
743.706
744.039
744.372
744.705
745.038
745.37
745.703
746.036
746.368
746.701
747.033
747.365
747.698
748.03
748.362
748.694
749.027
749.359
749.691
750.023
750.355
750.687
751.018
751.35
751.682
752.014
752.345
752.677
753.008
753.34
753.671
754.003
754.334
754.665
754.997
755.328
755.659
755.99
756.321
756.652
756.983
757.314
757.645
757.976
758.306
758.637
758.968
759.298
759.629
759.959
760.29
760.62
760.951
761.281
761.611
761.941
762.272
762.602
762.932
763.262
763.592
763.922
764.251
764.581
764.911
765.241
765.57
765.9
766.229
766.559
766.888
767.218
767.547
767.876
768.206
768.535
768.864
769.193
769.522
769.851
770.18
770.509
770.838
771.167
771.495
771.824
772.153
772.481
772.81
773.138
773.467
773.795
774.124
774.452
774.78
775.108
775.437
775.765
776.093
776.421
776.749
777.076
777.404
777.732
778.06
778.388
778.715
779.043
779.37
779.698
780.025
780.353
780.68
781.007
781.335
781.662
781.989
782.316
782.643
782.97
783.297
783.624
783.951
784.277
784.604
784.931
785.257
785.584
785.911
786.237
786.563
786.89
787.216
787.542
787.869
788.195
788.521
788.847
789.173
789.499
789.825
790.151
790.477
790.802
791.128
791.454
791.779
792.105
792.431
792.756
793.081
793.407
793.732
794.057
794.383
794.708
795.033
795.358
795.683
796.008
796.333
796.658
796.983
797.307
797.632
797.957
798.281
798.606
798.93
799.255
799.579
799.904
800.228
800.552
800.876
801.2
801.525
801.849
802.173
802.497
802.82
803.144
803.468
803.792
804.115
804.439
804.763
805.086
805.41
805.733
806.057
806.38
806.703
807.026
807.35
807.673
807.996
808.319
808.642
808.965
809.288
809.61
809.933
810.256
810.579
810.901
811.224
811.546
811.869
812.191
812.514
812.836
813.158
813.48
813.803
814.125
814.447
814.769
815.091
815.413
815.734
816.056
816.378
816.7
817.021
817.343
817.664
817.986
818.307
818.629
818.95
819.271
819.593
819.914
820.235
820.556
820.877
821.198
821.519
821.84
822.161
822.481
822.802
823.123
823.444
823.764
824.085
824.405
824.725
825.046
825.366
825.686
826.007
826.327
826.647
826.967
827.287
827.607
827.927
828.247
828.566
828.886
829.206
829.526
829.845
830.165
830.484
830.804
831.123
831.442
831.762
832.081
832.4
832.719
833.038
833.357
833.676
833.995
834.314
834.633
834.952
835.27
835.589
835.908
836.226
836.545
836.863
837.182
837.5
837.818
838.137
838.455
838.773
839.091
839.409
839.727
840.045
840.363
840.681
840.999
841.316
841.634
841.952
842.269
842.587
842.904
843.222
843.539
843.856
844.174
844.491
844.808
845.125
845.442
845.759
846.076
846.393
846.71
847.027
847.343
847.66
847.977
848.293
848.61
848.926
849.243
849.559
849.876
850.192
850.508
850.824
851.14
851.456
851.772
852.088
852.404
852.72
853.036
853.352
853.668
853.983
854.299
854.614
854.93
855.245
855.561
855.876
856.191
856.507
856.822
857.137
857.452
857.767
858.082
858.397
858.712
859.027
859.341
859.656
859.971
860.285
860.6
860.915
861.229
861.543
861.858
862.172
862.486
862.801
863.115
863.429
863.743
864.057
864.371
864.685
864.998
865.312
865.626
865.94
866.253
866.567
866.88
867.194
867.507
867.821
868.134
868.447
868.76
869.074
869.387
869.7
870.013
870.326
870.639
870.951
871.264
871.577
871.89
872.202
872.515
872.827
873.14
873.452
873.765
874.077
874.389
874.701
875.014
875.326
875.638
875.95
876.262
876.574
876.885
877.197
877.509
877.821
878.132
878.444
878.755
879.067
879.378
879.69
880.001
880.312
880.623
880.935
881.246
881.557
881.868
882.179
882.49
882.8
883.111
883.422
883.733
884.043
884.354
884.664
884.975
885.285
885.596
885.906
886.216
886.526
886.837
887.147
887.457
887.767
888.077
888.387
888.696
889.006
889.316
889.626
889.935
890.245
890.554
890.864
891.173
891.483
891.792
892.101
892.41
892.719
893.029
893.338
893.647
893.956
894.264
894.573
894.882
895.191
895.499
895.808
896.117
896.425
896.734
897.042
897.35
897.659
897.967
898.275
898.583
898.891
899.199
899.507
899.815
900.123
900.431
900.739
901.047
901.354
901.662
901.969
902.277
902.584
902.892
903.199
903.506
903.814
904.121
904.428
904.735
905.042
905.349
905.656
905.963
906.27
906.576
906.883
907.19
907.496
907.803
908.109
908.416
908.722
909.029
909.335
909.641
909.947
910.253
910.56
910.866
911.171
911.477
911.783
912.089
912.395
912.7
913.006
913.312
913.617
913.923
914.228
914.534
914.839
915.144
915.449
915.755
916.06
916.365
916.67
916.975
917.28
917.584
917.889
918.194
918.499
918.803
919.108
919.412
919.717
920.021
920.326
920.63
920.934
921.238
921.542
921.847
922.151
922.455
922.758
923.062
923.366
923.67
923.974
924.277
924.581
924.885
925.188
925.491
925.795
926.098
926.401
926.705
927.008
927.311
927.614
927.917
928.22
928.523
928.826
929.129
929.431
929.734
