"Band Number" Wavelength
9 453.586
192 520.796
285 554.377
551 648.226
660 685.717
692 696.615
725 707.802
788 729.01
864 754.334
1121 837.818
1294 892.101
1401 924.885
1414 928.826
1427 932.758
1439 936.38
1449 939.392
1457 941.798
1466 944.5
1474 946.899
1481 948.994
